30.02500 806.0
30.07500 797.0
30.12500 738.0
30.17500 770.0
30.22500 813.0
30.27500 779.0
30.32500 757.0
30.37500 780.0
30.42500 782.0
30.47500 748.0
30.52500 733.0
30.57500 749.0
30.62500 748.0
30.67500 745.0
30.72500 758.0
30.77500 759.0
30.82500 743.0
30.87500 739.0
30.92500 750.0
30.97500 754.0
31.02500 750.0
31.07500 727.0
31.12500 779.0
31.17500 685.0
31.22500 697.0
31.27500 731.0
31.32500 762.0
31.37500 736.0
31.42500 741.0
31.47500 748.0
31.52500 733.0
31.57500 696.0
31.62500 668.0
31.67500 736.0
31.72500 754.0
31.77500 698.0
31.82500 715.0
31.87500 712.0
31.92500 665.0
31.97500 674.0
32.02500 656.0
32.07500 715.0
32.12500 701.0
32.17500 712.0
32.22500 727.0
32.27500 700.0
32.32500 690.0
32.37500 671.0
32.42500 655.0
32.47500 675.0
32.52500 709.0
32.57500 664.0
32.62500 686.0
32.67500 628.0
32.72500 697.0
32.77500 637.0
32.82500 699.0
32.87500 649.0
32.92500 637.0
32.97500 650.0
33.02500 672.0
33.07500 653.0
33.12500 615.0
33.17500 629.0
33.22500 663.0
33.27500 672.0
33.32500 672.0
33.37500 650.0
33.42500 670.0
33.47500 625.0
33.52500 617.0
33.57500 666.0
33.62500 683.0
33.67500 666.0
33.72500 642.0
33.77500 633.0
33.82500 654.0
33.87500 649.0
33.92500 641.0
33.97500 595.0
34.02500 617.0
34.07500 662.0
34.12500 587.0
34.17500 599.0
34.22500 616.0
34.27500 692.0
34.32500 618.0
34.37500 611.0
34.42500 595.0
34.47500 621.0
34.52500 625.0
34.57500 605.0
34.62500 620.0
34.67500 601.0
34.72500 598.0
34.77500 663.0
34.82500 612.0
34.87500 660.0
34.92500 576.0
34.97500 582.0
35.02500 590.0
35.07500 595.0
35.12500 594.0
35.17500 600.0
35.22500 643.0
35.27500 625.0
35.32500 627.0
35.37500 591.0
35.42500 596.0
35.47500 601.0
35.52500 687.0
35.57500 622.0
35.62500 631.0
35.67500 627.0
35.72500 642.0
35.77500 553.0
35.82500 640.0
35.87500 628.0
35.92500 611.0
35.97500 622.0
36.02500 639.0
36.07500 654.0
36.12500 642.0
36.17500 603.0
36.22500 653.0
36.27500 617.0
36.32500 637.0
36.37500 662.0
36.42500 646.0
36.47500 687.0
36.52500 674.0
36.57500 672.0
36.62500 648.0
36.67500 672.0
36.72500 596.0
36.77500 703.0
36.82500 704.0
36.87500 676.0
36.92500 700.0
36.97500 714.0
37.02500 683.0
37.07500 779.0
37.12500 719.0
37.17500 782.0
37.22500 791.0
37.27500 809.0
37.32500 846.0
37.37500 880.0
37.42500 889.0
37.47500 934.0
37.52500 1038.0
37.57500 1117.0
37.62500 1142.0
37.67500 1272.0
37.72500 1429.0
37.77500 1573.0
37.82500 1752.0
37.87500 1998.0
37.92500 2314.0
37.97500 2481.0
38.02500 2770.0
38.07500 2890.0
38.12500 3051.0
38.17500 3159.0
38.22500 3174.0
38.27500 3323.0
38.32500 3056.0
38.37500 3027.0
38.42500 2770.0
38.47500 2594.0
38.52500 2366.0
38.57500 2078.0
38.62500 1927.0
38.67500 1723.0
38.72500 1603.0
38.77500 1335.0
38.82500 1263.0
38.87500 1197.0
38.92500 1064.0
38.97500 1025.0
39.02500 967.0
39.07500 949.0
39.12500 922.0
39.17500 874.0
39.22500 811.0
39.27500 816.0
39.32500 723.0
39.37500 792.0
39.42500 687.0
39.47500 731.0
39.52500 730.0
39.57500 657.0
39.62500 659.0
39.67500 646.0
39.72500 674.0
39.77500 653.0
39.82500 690.0
39.87500 667.0
39.92500 629.0
39.97500 600.0
40.02500 598.0
40.07500 672.0
40.12500 594.0
40.17500 618.0
40.22500 572.0
40.27500 589.0
40.32500 639.0
40.37500 598.0
40.42500 619.0
40.47500 595.0
40.52500 561.0
40.57500 554.0
40.62500 547.0
40.67500 530.0
40.72500 582.0
40.77500 568.0
40.82500 576.0
40.87500 565.0
40.92500 565.0
40.97500 559.0
41.02500 580.0
41.07500 549.0
41.12500 612.0
41.17500 590.0
41.22500 489.0
41.27500 613.0
41.32500 541.0
41.37500 548.0
41.42500 504.0
41.47500 545.0
41.52500 560.0
41.57500 530.0
41.62500 543.0
41.67500 553.0
41.72500 567.0
41.77500 590.0
41.82500 551.0
41.87500 547.0
41.92500 492.0
41.97500 566.0
42.02500 543.0
42.07500 502.0
42.12500 553.0
42.17500 566.0
42.22500 565.0
42.27500 642.0
42.32500 532.0
42.37500 546.0
42.42500 569.0
42.47500 556.0
42.52500 543.0
42.57500 554.0
42.62500 599.0
42.67500 549.0
42.72500 615.0
42.77500 560.0
42.82500 562.0
42.87500 553.0
42.92500 564.0
42.97500 609.0
43.02500 621.0
43.07500 581.0
43.12500 565.0
43.17500 650.0
43.22500 622.0
43.27500 647.0
43.32500 672.0
43.37500 690.0
43.42500 746.0
43.47500 695.0
43.52500 742.0
43.57500 739.0
43.62500 770.0
43.67500 813.0
43.72500 811.0
43.77500 879.0
43.82500 836.0
43.87500 909.0
43.92500 977.0
43.97500 1001.0
44.02500 1014.0
44.07500 1125.0
44.12500 1151.0
44.17500 1179.0
44.22500 1127.0
44.27500 1197.0
44.32500 1216.0
44.37500 1163.0
44.42500 1178.0
44.47500 1230.0
44.52500 1172.0
44.57500 1179.0
44.62500 1128.0
44.67500 1113.0
44.72500 986.0
44.77500 1026.0
44.82500 998.0
44.87500 915.0
44.92500 848.0
44.97500 813.0
45.02500 754.0
45.07500 727.0
45.12500 764.0
45.17500 662.0
45.22500 659.0
45.27500 674.0
45.32500 648.0
45.37500 636.0
45.42500 571.0
45.47500 610.0
45.52500 566.0
45.57500 603.0
45.62500 565.0
45.67500 564.0
45.72500 552.0
45.77500 539.0
45.82500 542.0
45.87500 538.0
45.92500 499.0
45.97500 479.0
46.02500 472.0
46.07500 488.0
46.12500 527.0
46.17500 483.0
46.22500 479.0
46.27500 478.0
46.32500 499.0
46.37500 515.0
46.42500 482.0
46.47500 502.0
46.52500 483.0
46.57500 446.0
46.62500 457.0
46.67500 493.0
46.72500 462.0
46.77500 454.0
46.82500 478.0
46.87500 475.0
46.92500 489.0
46.97500 486.0
47.02500 477.0
47.07500 484.0
47.12500 459.0
47.17500 441.0
47.22500 426.0
47.27500 481.0
47.32500 447.0
47.37500 427.0
47.42500 451.0
47.47500 423.0
47.52500 457.0
47.57500 469.0
47.62500 450.0
47.67500 447.0
47.72500 495.0
47.77500 416.0
47.82500 434.0
47.87500 441.0
47.92500 463.0
47.97500 450.0
48.02500 434.0
48.07500 465.0
48.12500 472.0
48.17500 440.0
48.22500 468.0
48.27500 444.0
48.32500 446.0
48.37500 424.0
48.42500 482.0
48.47500 474.0
48.52500 478.0
48.57500 478.0
48.62500 454.0
48.67500 476.0
48.72500 452.0
48.77500 439.0
48.82500 410.0
48.87500 423.0
48.92500 514.0
48.97500 485.0
49.02500 418.0
49.07500 410.0
49.12500 493.0
49.17500 504.0
49.22500 451.0
49.27500 458.0
49.32500 505.0
49.37500 465.0
49.42500 498.0
49.47500 457.0
49.52500 501.0
49.57500 485.0
49.62500 454.0
49.67500 498.0
49.72500 489.0
49.77500 483.0
49.82500 493.0
49.87500 452.0
49.92500 472.0
49.97500 457.0
50.02500 478.0
50.07500 470.0
50.12500 536.0
50.17500 462.0
50.22500 469.0
50.27500 518.0
50.32500 463.0
50.37500 544.0
50.42500 506.0
50.47500 547.0
50.52500 534.0
50.57500 535.0
50.62500 514.0
50.67500 518.0
50.72500 503.0
50.77500 516.0
50.82500 530.0
50.87500 534.0
50.92500 507.0
50.97500 510.0
51.02500 584.0
51.07500 570.0
51.12500 539.0
51.17500 560.0
51.22500 546.0
51.27500 555.0
51.32500 534.0
51.37500 578.0
51.42500 579.0
51.47500 567.0
51.52500 575.0
51.57500 552.0
51.62500 585.0
51.67500 592.0
51.72500 578.0
51.77500 604.0
51.82500 634.0
51.87500 598.0
51.92500 576.0
51.97500 595.0
52.02500 602.0
52.07500 664.0
52.12500 653.0
52.17500 596.0
52.22500 618.0
52.27500 668.0
52.32500 647.0
52.37500 684.0
52.42500 647.0
52.47500 726.0
52.52500 681.0
52.57500 745.0
52.62500 745.0
52.67500 843.0
52.72500 1618.0
52.77500 3002.0
52.82500 4505.0
52.87500 5902.0
52.92500 7317.0
52.97500 7869.0
53.02500 7322.0
53.07500 5977.0
53.12500 4672.0
53.17500 3130.0
53.22500 1891.0
53.27500 1103.0
53.32500 1066.0
53.37500 988.0
53.42500 920.0
53.47500 954.0
53.52500 993.0
53.57500 1064.0
53.62500 1061.0
53.67500 1125.0
53.72500 1104.0
53.77500 1061.0
53.82500 1127.0
53.87500 1112.0
53.92500 1169.0
53.97500 1295.0
54.02500 1320.0
54.07500 1258.0
54.12500 1382.0
54.17500 1412.0
54.22500 1551.0
54.27500 1702.0
54.32500 2098.0
54.37500 2401.0
54.42500 2683.0
54.47500 2899.0
54.52500 2981.0
54.57500 2948.0
54.62500 2670.0
54.67500 2608.0
54.72500 2326.0
54.77500 2232.0
54.82500 2227.0
54.87500 2314.0
54.92500 2441.0
54.97500 2484.0
55.02500 2576.0
55.07500 2594.0
55.12500 2673.0
55.17500 2784.0
55.22500 2822.0
55.27500 2910.0
55.32500 3008.0
55.37500 3041.0
55.42500 2968.0
55.47500 2922.0
55.52500 3031.0
55.57500 3185.0
55.62500 3103.0
55.67500 3002.0
55.72500 3110.0
55.77500 3043.0
55.82500 2908.0
55.87500 2924.0
55.92500 2773.0
55.97500 2760.0
56.02500 2668.0
56.07500 2607.0
56.12500 2439.0
56.17500 2462.0
56.22500 2376.0
56.27500 2280.0
56.32500 2268.0
56.37500 2084.0
56.42500 2097.0
56.47500 2000.0
56.52500 1925.0
56.57500 1802.0
56.62500 1807.0
56.67500 1759.0
56.72500 1709.0
56.77500 1576.0
56.82500 1580.0
56.87500 1459.0
56.92500 1470.0
56.97500 1430.0
57.02500 1372.0
57.07500 1331.0
57.12500 1331.0
57.17500 1219.0
57.22500 1196.0
57.27500 1236.0
57.32500 1138.0
57.37500 1180.0
57.42500 1053.0
57.47500 1104.0
57.52500 1038.0
57.57500 956.0
57.62500 1028.0
57.67500 971.0
57.72500 936.0
57.77500 904.0
57.82500 905.0
57.87500 875.0
57.92500 848.0
57.97500 851.0
58.02500 840.0
58.07500 781.0
58.12500 745.0
58.17500 809.0
58.22500 802.0
58.27500 738.0
58.32500 723.0
58.37500 739.0
58.42500 734.0
58.47500 679.0
58.52500 674.0
58.57500 653.0
58.62500 669.0
58.67500 668.0
58.72500 584.0
58.77500 619.0
58.82500 656.0
58.87500 644.0
58.92500 580.0
58.97500 619.0
59.02500 596.0
59.07500 583.0
59.12500 579.0
59.17500 546.0
59.22500 553.0
59.27500 555.0
59.32500 555.0
59.37500 549.0
59.42500 559.0
59.47500 490.0
59.52500 557.0
59.57500 501.0
59.62500 511.0
59.67500 545.0
59.72500 500.0
59.77500 490.0
59.82500 519.0
59.87500 498.0
59.92500 486.0
59.97500 506.0
60.02500 469.0
60.07500 490.0
60.12500 443.0
60.17500 459.0
60.22500 455.0
60.27500 465.0
60.32500 488.0
60.37500 456.0
60.42500 448.0
60.47500 477.0
60.52500 451.0
60.57500 433.0
60.62500 427.0
60.67500 467.0
60.72500 450.0
60.77500 425.0
60.82500 438.0
60.87500 424.0
60.92500 439.0
60.97500 468.0
61.02500 422.0
61.07500 443.0
61.12500 443.0
61.17500 437.0
61.22500 417.0
61.27500 434.0
61.32500 444.0
61.37500 415.0
61.42500 449.0
61.47500 406.0
61.52500 384.0
61.57500 432.0
61.62500 393.0
61.67500 398.0
61.72500 407.0
61.77500 413.0
61.82500 434.0
61.87500 409.0
61.92500 390.0
61.97500 389.0
62.02500 415.0
62.07500 367.0
62.12500 365.0
62.17500 377.0
62.22500 393.0
62.27500 370.0
62.32500 371.0
62.37500 371.0
62.42500 426.0
62.47500 442.0
62.52500 399.0
62.57500 378.0
62.62500 366.0
62.67500 402.0
62.72500 392.0
62.77500 380.0
62.82500 390.0
62.87500 366.0
62.92500 379.0
62.97500 394.0
63.02500 434.0
63.07500 397.0
63.12500 418.0
63.17500 399.0
63.22500 427.0
63.27500 413.0
63.32500 434.0
63.37500 439.0
63.42500 405.0
63.47500 440.0
63.52500 463.0
63.57500 447.0
63.62500 454.0
63.67500 488.0
63.72500 459.0
63.77500 465.0
63.82500 520.0
63.87500 510.0
63.92500 505.0
63.97500 552.0
64.02500 585.0
64.07500 617.0
64.12500 591.0
64.17500 649.0
64.22500 678.0
64.27500 758.0
64.32500 821.0
64.37500 832.0
64.42500 873.0
64.47500 934.0
64.52500 977.0
64.57500 956.0
64.62500 1024.0
64.67500 1025.0
64.72500 1022.0
64.77500 1021.0
64.82500 946.0
64.87500 968.0
64.92500 922.0
64.97500 895.0
65.02500 838.0
65.07500 804.0
65.12500 761.0
65.17500 707.0
65.22500 630.0
65.27500 621.0
65.32500 558.0
65.37500 544.0
65.42500 525.0
65.47500 557.0
65.52500 544.0
65.57500 503.0
65.62500 446.0
65.67500 434.0
65.72500 463.0
65.77500 409.0
65.82500 377.0
65.87500 432.0
65.92500 384.0
65.97500 398.0
66.02500 384.0
66.07500 379.0
66.12500 357.0
66.17500 384.0
66.22500 375.0
66.27500 369.0
66.32500 383.0
66.37500 369.0
66.42500 349.0
66.47500 359.0
66.52500 370.0
66.57500 355.0
66.62500 364.0
66.67500 346.0
66.72500 353.0
66.77500 351.0
66.82500 320.0
66.87500 339.0
66.92500 337.0
66.97500 349.0
67.02500 344.0
67.07500 352.0
67.12500 350.0
67.17500 343.0
67.22500 375.0
67.27500 358.0
67.32500 352.0
67.37500 340.0
67.42500 336.0
67.47500 319.0
67.52500 314.0
67.57500 327.0
67.62500 333.0
67.67500 327.0
67.72500 283.0
67.77500 369.0
67.82500 327.0
67.87500 325.0
67.92500 316.0
67.97500 286.0
68.02500 305.0
68.07500 334.0
68.12500 319.0
68.17500 300.0
68.22500 337.0
68.27500 312.0
68.32500 328.0
68.37500 325.0
68.42500 322.0
68.47500 315.0
68.52500 313.0
68.57500 298.0
68.62500 283.0
68.67500 322.0
68.72500 311.0
68.77500 320.0
68.82500 285.0
68.87500 328.0
68.92500 334.0
68.97500 336.0
69.02500 312.0
69.07500 286.0
69.12500 316.0
69.17500 333.0
69.22500 336.0
69.27500 316.0
69.32500 323.0
69.37500 324.0
69.42500 352.0
69.47500 300.0
69.52500 321.0
69.57500 322.0
69.62500 328.0
69.67500 334.0
69.72500 304.0
69.77500 324.0
69.82500 304.0
69.87500 310.0
69.92500 298.0
69.97500 306.0
70.02500 315.0
70.07500 300.0
70.12500 300.0
70.17500 324.0
70.22500 318.0
70.27500 306.0
70.32500 339.0
70.37500 287.0
70.42500 285.0
70.47500 296.0
70.52500 314.0
70.57500 321.0
70.62500 306.0
70.67500 316.0
70.72500 310.0
70.77500 318.0
70.82500 307.0
70.87500 302.0
70.92500 307.0
70.97500 286.0
71.02500 307.0
71.07500 275.0
71.12500 296.0
71.17500 309.0
71.22500 268.0
71.27500 330.0
71.32500 313.0
71.37500 323.0
71.42500 312.0
71.47500 319.0
71.52500 297.0
71.57500 324.0
71.62500 319.0
71.67500 345.0
71.72500 336.0
71.77500 280.0
71.82500 325.0
71.87500 301.0
71.92500 311.0
71.97500 315.0
72.02500 313.0
72.07500 293.0
72.12500 310.0
72.17500 295.0
72.22500 306.0
72.27500 311.0
72.32500 293.0
72.37500 268.0
72.42500 319.0
72.47500 291.0
72.52500 334.0
72.57500 302.0
72.62500 304.0
72.67500 327.0
72.72500 319.0
72.77500 309.0
72.82500 347.0
72.87500 326.0
72.92500 353.0
72.97500 338.0
73.02500 298.0
73.07500 340.0
73.12500 340.0
73.17500 345.0
73.22500 315.0
73.27500 319.0
73.32500 314.0
73.37500 306.0
73.42500 331.0
73.47500 334.0
73.52500 318.0
73.57500 316.0
73.62500 314.0
73.67500 333.0
73.72500 312.0
73.77500 334.0
73.82500 336.0
73.87500 318.0
73.92500 314.0
73.97500 341.0
74.02500 385.0
74.07500 311.0
74.12500 334.0
74.17500 313.0
74.22500 305.0
74.27500 307.0
74.32500 349.0
74.37500 329.0
74.42500 366.0
74.47500 335.0
74.52500 333.0
74.57500 335.0
74.62500 303.0
74.67500 324.0
74.72500 348.0
74.77500 337.0
74.82500 373.0
74.87500 342.0
74.92500 374.0
74.97500 301.0
75.02500 365.0
75.07500 317.0
75.12500 347.0
75.17500 346.0
75.22500 322.0
75.27500 340.0
75.32500 353.0
75.37500 359.0
75.42500 347.0
75.47500 360.0
75.52500 360.0
75.57500 358.0
75.62500 316.0
75.67500 365.0
75.72500 364.0
75.77500 372.0
75.82500 349.0
75.87500 375.0
75.92500 395.0
75.97500 389.0
76.02500 372.0
76.07500 411.0
76.12500 382.0
76.17500 453.0
76.22500 429.0
76.27500 498.0
76.32500 498.0
76.37500 499.0
76.42500 483.0
76.47500 449.0
76.52500 478.0
76.57500 419.0
76.62500 471.0
76.67500 477.0
76.72500 489.0
76.77500 483.0
76.82500 449.0
76.87500 527.0
76.92500 554.0
76.97500 560.0
77.02500 598.0
77.07500 575.0
77.12500 639.0
77.17500 644.0
77.22500 677.0
77.27500 750.0
77.32500 705.0
77.37500 791.0
77.42500 803.0
77.47500 840.0
77.52500 842.0
77.57500 885.0
77.62500 922.0
77.67500 908.0
77.72500 883.0
77.77500 902.0
77.82500 902.0
77.87500 856.0
77.92500 821.0
77.97500 795.0
78.02500 789.0
78.07500 768.0
78.12500 706.0
78.17500 691.0
78.22500 694.0
78.27500 644.0
78.32500 621.0
78.37500 617.0
78.42500 581.0
78.47500 575.0
78.52500 534.0
78.57500 569.0
78.62500 541.0
78.67500 554.0
78.72500 515.0
78.77500 546.0
78.82500 534.0
78.87500 546.0
78.92500 495.0
78.97500 518.0
79.02500 533.0
79.07500 510.0
79.12500 518.0
79.17500 505.0
79.22500 511.0
79.27500 520.0
79.32500 471.0
79.37500 477.0
79.42500 504.0
79.47500 519.0
79.52500 520.0
79.57500 507.0
79.62500 502.0
79.67500 519.0
79.72500 486.0
79.77500 545.0
79.82500 506.0
79.87500 494.0
79.92500 504.0
79.97500 525.0
80.02500 508.0
80.07500 516.0
80.12500 513.0
80.17500 555.0
80.22500 531.0
80.27500 546.0
80.32500 547.0
80.37500 547.0
80.42500 512.0
80.47500 531.0
80.52500 569.0
80.57500 528.0
80.62500 545.0
80.67500 557.0
80.72500 536.0
80.77500 577.0
80.82500 537.0
80.87500 534.0
80.92500 547.0
80.97500 581.0
81.02500 552.0
81.07500 552.0
81.12500 569.0
81.17500 596.0
81.22500 578.0
81.27500 611.0
81.32500 627.0
81.37500 599.0
81.42500 610.0
81.47500 689.0
81.52500 677.0
81.57500 628.0
81.62500 676.0
81.67500 724.0
81.72500 672.0
81.77500 742.0
81.82500 682.0
81.87500 704.0
81.92500 680.0
81.97500 660.0
82.02500 659.0
82.07500 683.0
82.12500 666.0
82.17500 698.0
82.22500 689.0
82.27500 599.0
82.32500 657.0
82.37500 655.0
82.42500 620.0
82.47500 592.0
82.52500 630.0
82.57500 618.0
82.62500 601.0
82.67500 592.0
82.72500 589.0
82.77500 587.0
82.82500 591.0
82.87500 601.0
82.92500 609.0
82.97500 579.0
83.02500 597.0
83.07500 555.0
83.12500 612.0
83.17500 566.0
83.22500 606.0
83.27500 562.0
83.32500 521.0
83.37500 558.0
83.42500 539.0
83.47500 600.0
83.52500 645.0
83.57500 532.0
83.62500 605.0
83.67500 626.0
83.72500 612.0
83.77500 589.0
83.82500 623.0
83.87500 571.0
83.92500 572.0
83.97500 597.0
84.02500 581.0
84.07500 615.0
84.12500 574.0
84.17500 565.0
84.22500 620.0
84.27500 578.0
84.32500 586.0
84.37500 552.0
84.42500 612.0
84.47500 636.0
84.52500 554.0
84.57500 617.0
84.62500 585.0
84.67500 564.0
84.72500 553.0
84.77500 584.0
84.82500 570.0
84.87500 598.0
84.92500 617.0
84.97500 537.0
85.02500 628.0
85.07500 613.0
85.12500 540.0
85.17500 591.0
85.22500 593.0
85.27500 600.0
85.32500 577.0
85.37500 637.0
85.42500 587.0
85.47500 568.0
85.52500 633.0
85.57500 574.0
85.62500 582.0
85.67500 581.0
85.72500 564.0
85.77500 626.0
85.82500 574.0
85.87500 608.0
85.92500 600.0
85.97500 554.0
86.02500 602.0
86.07500 627.0
86.12500 555.0
86.17500 632.0
86.22500 637.0
86.27500 574.0
86.32500 635.0
86.37500 567.0
86.42500 572.0
86.47500 653.0
86.52500 635.0
86.57500 598.0
86.62500 629.0
86.67500 624.0
86.72500 598.0
86.77500 631.0
86.82500 626.0
86.87500 599.0
86.92500 620.0
86.97500 629.0
87.02500 620.0
87.07500 620.0
87.12500 610.0
87.17500 644.0
87.22500 588.0
87.27500 647.0
87.32500 611.0
87.37500 629.0
87.42500 643.0
87.47500 581.0
87.52500 572.0
87.57500 578.0
87.62500 618.0
87.67500 626.0
87.72500 669.0
87.77500 623.0
87.82500 582.0
87.87500 643.0
87.92500 571.0
87.97500 614.0
88.02500 598.0
88.07500 604.0
88.12500 631.0
88.17500 640.0
88.22500 583.0
88.27500 560.0
88.32500 558.0
88.37500 593.0
88.42500 604.0
88.47500 589.0
88.52500 598.0
88.57500 603.0
88.62500 620.0
88.67500 599.0
88.72500 585.0
88.77500 577.0
88.82500 603.0
88.87500 580.0
88.92500 606.0
88.97500 587.0
89.02500 628.0
89.07500 619.0
89.12500 632.0
89.17500 594.0
89.22500 595.0
89.27500 578.0
89.32500 609.0
89.37500 604.0
89.42500 588.0
89.47500 559.0
89.52500 543.0
89.57500 640.0
89.62500 647.0
89.67500 570.0
89.72500 585.0
89.77500 585.0
89.82500 576.0
89.87500 600.0
89.92500 610.0
89.97500 643.0
